      #Energy        TDOS
     -11.91661       0.00000
     -11.72761       0.00000
     -11.53861       0.00000
     -11.34961       0.00000
     -11.16161       0.00000
     -10.97261       0.00000
     -10.78361       0.00000
     -10.59461       0.00000
     -10.40561       0.00000
     -10.21761       0.00000
     -10.02861       0.00000
      -9.83961       0.00000
      -9.65061       0.00000
      -9.46161       0.00000
      -9.27361       0.01619
      -9.08461       0.03750
      -8.89561       0.04914
      -8.70661       0.05967
      -8.51761       0.06981
      -8.32861       0.07835
      -8.14061       0.08683
      -7.95161       0.09583
      -7.76261       0.10360
      -7.57361       0.11230
      -7.38461       0.12140
      -7.19661       0.13040
      -7.00761       0.14040
      -6.81861       0.15120
      -6.62961       0.16360
      -6.44061       0.17770
      -6.25261       0.19410
      -6.06361       0.21450
      -5.87461       0.24150
      -5.68561       0.27570
      -5.49661       0.32180
      -5.30861       0.40950
      -5.11961       0.58430
      -4.93061       0.85690
      -4.74161       1.20000
      -4.55261       1.28800
      -4.36361       1.70700
      -4.17561       2.47500
      -3.98661       1.65200
      -3.79761       2.38100
      -3.60861       1.90500
      -3.41961       3.08100
      -3.23161       3.18100
      -3.04261       3.81300
      -2.85361       3.53500
      -2.66461       2.66000
      -2.47561       3.05000
      -2.28761       3.57300
      -2.09861       3.13000
      -1.90961       3.66400
      -1.72061       6.82300
      -1.53161       0.44010
      -1.34361       0.41160
      -1.15461       0.36870
      -0.96561       0.35550
      -0.77661       0.35630
      -0.58761       0.32470
      -0.39861       0.31640
      -0.21061       0.31350
      -0.02161       0.30870
       0.16739       0.29090
       0.35639       0.28400
       0.54539       0.27970
       0.73339       0.27690
       0.92239       0.27090
       1.11139       0.26180
       1.30039       0.25850
       1.48939       0.25960
       1.67739       0.25620
       1.86639       0.25230
       2.05539       0.23600
       2.24439       0.22920
       2.43339       0.22040
       2.62139       0.20430
       2.81039       0.19500
       2.99939       0.18730
       3.18839       0.17810
       3.37739       0.16650
       3.56639       0.14930
       3.75439       0.13870
       3.94339       0.25730
       4.13239       0.26700
       4.32139       0.26870
       4.51039       0.36700
       4.69839       0.25930
       4.88739       0.25010
       5.07639       0.29220
       5.26539       0.30590
       5.45439       0.28330
       5.64239       0.27150
       5.83139       0.25910
       6.02039       0.25400
       6.20939       0.24900
       6.39839       0.24720
       6.58639       0.25570
       6.77539       0.23570
       6.96439       0.22600
       7.15339       0.23660
       7.34239       0.30400
       7.53039       0.30900
       7.71939       0.28870
       7.90839       0.29840
       8.09739       0.31970
       8.28639       0.34880
       8.47539       0.35230
       8.66339       0.34650
       8.85239       0.35740
       9.04139       0.34400
       9.23039       0.34680
       9.41939       0.35600
       9.60739       0.38010
       9.79639       0.36850
       9.98539       0.37420
      10.17439       0.36480
      10.36339       0.36630
      10.55139       0.38340
      10.74039       0.37860
      10.92939       0.37380
      11.11839       0.38170
      11.30739       0.38060
      11.49539       0.38900
      11.68439       0.40120
      11.87339       0.39130
      12.06239       0.39750
      12.25139       0.40870
      12.44039       0.41010
      12.62839       0.42010
      12.81739       0.43080
      13.00639       0.44940
      13.19539       0.46060
      13.38439       0.45770
      13.57239       0.44800
      13.76139       0.44350
      13.95039       0.43220
      14.13939       0.42980
      14.32839       0.42150
      14.51639       0.41720
      14.70539       0.41270
      14.89439       0.40660
      15.08339       0.39730
      15.27239       0.38930
      15.46039       0.38280
      15.64939       0.37910
      15.83839       0.37310
      16.02739       0.36530
      16.21639       0.35770
      16.40539       0.35120
      16.59339       0.34520
      16.78239       0.33980
      16.97139       0.33440
      17.16039       0.32690
      17.34939       0.31870
      17.53739       0.31070
      17.72639       0.31020
      17.91539       0.31660
      18.10439       0.32360
      18.29339       0.33040
      18.48139       0.33410
      18.67039       0.34670
      18.85939       0.36130
      19.04839       0.38040
      19.23739       0.40120
      19.42539       0.41940
      19.61439       0.43520
      19.80339       0.44510
      19.99239       0.45440
      20.18139       0.46640
      20.37039       0.48430
      20.55839       0.50890
      20.74739       0.52670
      20.93639       0.53100
      21.12539       0.53940
      21.31439       0.55460
      21.50239       0.58090
      21.69139       0.62720
      21.88039       0.63500
      22.06939       0.63770
      22.25839       0.59050
      22.44639       0.56610
      22.63539       0.54430
      22.82439       0.53330
      23.01339       0.53640
      23.20239       0.50040
      23.39039       0.48200
      23.57939       0.46760
      23.76839       0.45460
      23.95739       0.43930
      24.14639       0.42360
      24.33539       0.41050
      24.52339       0.38230
      24.71239       0.35800
      24.90139       0.35450
      25.09039       0.32440
      25.27939       0.31820
      25.46739       0.34320
      25.65639       0.29570
      25.84539       0.29490
      26.03439       0.29970
      26.22339       0.30460
      26.41139       0.36700
      26.60039       0.42450
      26.78939       0.48820
      26.97839       0.62550
      27.16739       0.60910
      27.35539       0.60770
      27.54439       0.60180
      27.73339       0.56160
      27.92239       0.55370
      28.11139       0.57490
      28.30039       0.55370
      28.48839       0.51250
      28.67739       0.48510
      28.86639       0.43320
      29.05539       0.41270
      29.24439       0.40020
      29.43239       0.39860
      29.62139       0.39380
      29.81039       0.38560
      29.99939       0.36990
      30.18839       0.35530
      30.37639       0.34680
      30.56539       0.35910
      30.75439       0.36410
      30.94339       0.41320
      31.13239       0.36320
      31.32039       0.34950
      31.50939       0.34620
      31.69839       0.35410
      31.88739       0.35370
      32.07639       0.34320
      32.26439       0.30180
      32.45339       0.29030
      32.64239       0.28870
      32.83139       0.27480
      33.02039       0.26180
      33.20939       0.24680
      33.39739       0.24290
      33.58639       0.25730
      33.77539       0.22350
      33.96439       0.20140
      34.15339       0.19730
      34.34139       0.16500
      34.53039       0.11950
      34.71939       0.09912
      34.90839       0.08664
      35.09739       0.08084
      35.28539       0.07775
      35.47439       0.07503
      35.66339       0.07226
      35.85239       0.06944
      36.04139       0.06659
      36.22939       0.06380
      36.41839       0.06111
      36.60739       0.05847
      36.79639       0.05599
      36.98539       0.05361
      37.17439       0.05127
      37.36239       0.04896
      37.55139       0.04669
      37.74039       0.04443
      37.92939       0.04237
      38.11839       0.04044
      38.30639       0.03854
      38.49539       0.03664
      38.68439       0.03483
      38.87339       0.03292
      39.06239       0.03111
      39.25039       0.02944
      39.43939       0.02787
      39.62839       0.02634
      39.81739       0.02481
      40.00639       0.02326
      40.19439       0.02169
      40.38339       0.02015
      40.57239       0.01872
      40.76139       0.01743
      40.95039       0.01600
      41.13939       0.01456
      41.32739       0.01307
      41.51639       0.01152
      41.70539       0.00853
      41.89439       0.00453
      42.08339       0.00096
      42.27139       0.00000
      42.46039       0.00000
      42.64939       0.00000
      42.83839       0.00000
      43.02739       0.00000
      43.21539       0.00000
      43.40439       0.00000
      43.59339       0.00000
      43.78239       0.00000
      43.97139       0.00000
      44.15939       0.00000
      44.34839       0.00000
      44.53739       0.00000
      44.72639       0.00000
